;;//         
;;// Intrinsic (un-reddened) AGN spectrum for 
;;//   log_{10}(L_bol/L_sun)   = 12.00 
;;//   log_{10}(L_bol/[erg/s]) = 45.59 
;;//     (throughout, L_sun is the bolometric solar L = 3.9x10^33 erg/s)  
;;// columns are frequency, AGN spectrum (nu*L_nu) in solar and CGS units :  
;;//   log_{10}(nu/Hz)   log_{10}(nu*L_nu/L_sun)  log_{10}(nu*L_nu/[erg/s])  
;;// the output frequency list spans ~300 microns to ~100 keV  
;;// the last four columns compute bands frequently adopted :  
;;//   nu = -1.00  ::  B-band (4400 Angstroms)  
;;//   nu = -2.00  ::  mid-IR (15 microns)  
;;//   nu = -3.00  ::  soft X-ray (integrated luminosity from 0.5-2 keV)  
;;//   nu = -4.00  ::  hard X-ray (integrated luminosity from 2-10  keV)  
;;//         
    12.00    8.99118   42.58224 
    12.02    9.03118   42.62224 
    12.04    9.07118   42.66224 
    12.06    9.11118   42.70224 
    12.08    9.15118   42.74224 
    12.10    9.19118   42.78224 
    12.12    9.23118   42.82224 
    12.14    9.27118   42.86224 
    12.16    9.31118   42.90224 
    12.18    9.35118   42.94224 
    12.20    9.39118   42.98224 
    12.22    9.43118   43.02224 
    12.24    9.47118   43.06224 
    12.26    9.51118   43.10224 
    12.28    9.55118   43.14224 
    12.30    9.59118   43.18224 
    12.32    9.63118   43.22224 
    12.34    9.67118   43.26224 
    12.36    9.71118   43.30224 
    12.38    9.75118   43.34224 
    12.40    9.79118   43.38224 
    12.42    9.83118   43.42224 
    12.44    9.87118   43.46224 
    12.46    9.91118   43.50224 
    12.48    9.95118   43.54224 
    12.50    9.99118   43.58224 
    12.52   10.04118   43.63224 
    12.54   10.10118   43.69224 
    12.56   10.15118   43.74224 
    12.58   10.20118   43.79224 
    12.60   10.25118   43.84224 
    12.62   10.30118   43.89224 
    12.64   10.34118   43.93224 
    12.66   10.38118   43.97224 
    12.68   10.42118   44.01224 
    12.70   10.46118   44.05224 
    12.72   10.49118   44.08224 
    12.74   10.52118   44.11224 
    12.76   10.55118   44.14224 
    12.78   10.57118   44.16224 
    12.80   10.60118   44.19224 
    12.82   10.62118   44.21224 
    12.84   10.64118   44.23224 
    12.86   10.66118   44.25224 
    12.88   10.68118   44.27224 
    12.90   10.70118   44.29224 
    12.92   10.72118   44.31224 
    12.94   10.74118   44.33224 
    12.96   10.76118   44.35224 
    12.98   10.77118   44.36224 
    13.00   10.79118   44.38224 
    13.02   10.80118   44.39224 
    13.04   10.82118   44.41224 
    13.06   10.83118   44.42224 
    13.08   10.84118   44.43224 
    13.10   10.85118   44.44224 
    13.12   10.86118   44.45224 
    13.14   10.87118   44.46224 
    13.16   10.88118   44.47224 
    13.18   10.89118   44.48224 
    13.20   10.90118   44.49224 
    13.22   10.91118   44.50224 
    13.24   10.91118   44.50224 
    13.26   10.92118   44.51224 
    13.28   10.93118   44.52224 
    13.30   10.94118   44.53224 
    13.32   10.94118   44.53224 
    13.34   10.95118   44.54224 
    13.36   10.95118   44.54224 
    13.38   10.96118   44.55224 
    13.40   10.96118   44.55224 
    13.42   10.97118   44.56224 
    13.44   10.98118   44.57224 
    13.46   10.98118   44.57224 
    13.48   10.98118   44.57224 
    13.50   10.99118   44.58224 
    13.52   10.99118   44.58224 
    13.54   10.99118   44.58224 
    13.56   11.00118   44.59224 
    13.58   11.00118   44.59224 
    13.60   11.00118   44.59224 
    13.62   11.00118   44.59224 
    13.64   11.01118   44.60224 
    13.66   11.01118   44.60224 
    13.68   11.01118   44.60224 
    13.70   11.01118   44.60224 
    13.72   11.01118   44.60224 
    13.74   11.01118   44.60224 
    13.76   11.01118   44.60224 
    13.78   11.01118   44.60224 
    13.80   11.01118   44.60224 
    13.82   11.00118   44.59224 
    13.84   11.00118   44.59224 
    13.86   11.00118   44.59224 
    13.88   11.00118   44.59224 
    13.90   11.00118   44.59224 
    13.92   11.00118   44.59224 
    13.94   10.99118   44.58224 
    13.96   10.99118   44.58224 
    13.98   10.98118   44.57224 
    14.00   10.98118   44.57224 
    14.02   10.97118   44.56224 
    14.04   10.96118   44.55224 
    14.06   10.95118   44.54224 
    14.08   10.94118   44.53224 
    14.10   10.93118   44.52224 
    14.12   10.91118   44.50224 
    14.14   10.90118   44.49224 
    14.16   10.88118   44.47224 
    14.18   10.86118   44.45224 
    14.20   10.84118   44.43224 
    14.22   10.82118   44.41224 
    14.24   10.79118   44.38224 
    14.26   10.77118   44.36224 
    14.28   10.75118   44.34224 
    14.30   10.73118   44.32224 
    14.32   10.72118   44.31224 
    14.34   10.71118   44.30224 
    14.36   10.71118   44.30224 
    14.38   10.71118   44.30224 
    14.40   10.71118   44.30224 
    14.42   10.72118   44.31224 
    14.44   10.72118   44.31224 
    14.46   10.73118   44.32224 
    14.48   10.74118   44.33224 
    14.50   10.75118   44.34224 
    14.52   10.76118   44.35224 
    14.54   10.78118   44.37224 
    14.56   10.79118   44.38224 
    14.58   10.78750   44.37856 
    14.60   10.80525   44.39632 
    14.62   10.78926   44.38033 
    14.64   10.82059   44.41166 
    14.66   11.40698   44.99804 
    14.68   10.83919   44.43026 
    14.70   10.85615   44.44721 
    14.72   10.86402   44.45508 
    14.74   10.88117   44.47224 
    14.76   10.93417   44.52524 
    14.78   10.98154   44.57260 
    14.80   10.98204   44.57311 
    14.82   11.03299   44.62405 
    14.84   11.08862   44.67968 
    14.86   11.00402   44.59508 
    14.88   11.03260   44.62366 
    14.90   11.05260   44.64366 
    14.92   11.07926   44.67033 
    14.94   11.12245   44.71352 
    14.96   11.14449   44.73556 
    14.98   11.15154   44.74261 
    15.00   11.15819   44.74926 
    15.02   11.21152   44.80259 
    15.04   11.21826   44.80932 
    15.06   11.20203   44.79309 
    15.08   11.23338   44.82444 
    15.10   11.21686   44.80793 
    15.12   11.20059   44.79166 
    15.14   11.20649   44.79755 
    15.16   11.24397   44.83503 
    15.18   11.23494   44.82600 
    15.20   11.37078   44.96185 
    15.22   11.27416   44.86522 
    15.24   11.28869   44.87976 
    15.26   11.33307   44.92414 
    15.28   11.37549   44.96656 
    15.30   11.32919   44.92026 
    15.32   11.30045   44.89151 
    15.34   11.35445   44.94552 
    15.36   11.43299   45.02405 
    15.38   11.59151   45.18257 
    15.40   11.50745   45.09852 
    15.42   11.28658   44.87764 
    15.44   11.30022   44.89128 
    15.46   11.45792   45.04899 
    15.48   11.28464   44.87570 
    15.50   11.24118   44.83224 
    15.52   11.20118   44.79224 
    15.54   11.17118   44.76224 
    15.56   11.15118   44.74224 
    15.58   11.12118   44.71224 
    15.60   11.11118   44.70224 
    15.62   11.09118   44.68224 
    15.64   11.07118   44.66224 
    15.66   11.06118   44.65224 
    15.68   11.04118   44.63224 
    15.70   11.02118   44.61224 
    15.72   11.00118   44.59224 
    15.74   10.98118   44.57224 
    15.76   10.96118   44.55224 
    15.78   10.94102   44.53208 
    15.80   10.91955   44.51062 
    15.82   10.89809   44.48915 
    15.84   10.87663   44.46769 
    15.86   10.85516   44.44623 
    15.88   10.83370   44.42476 
    15.90   10.81223   44.40330 
    15.92   10.79077   44.38183 
    15.94   10.76930   44.36037 
    15.96   10.74784   44.33890 
    15.98   10.72637   44.31744 
    16.00   10.70491   44.29597 
    16.02   10.68344   44.27451 
    16.04   10.66198   44.25304 
    16.06   10.64052   44.23158 
    16.08   10.61905   44.21012 
    16.10   10.59759   44.18865 
    16.12   10.57612   44.16719 
    16.14   10.55466   44.14572 
    16.16   10.53319   44.12426 
    16.18   10.51173   44.10279 
    16.20   10.49026   44.08133 
    16.22   10.46880   44.05986 
    16.24   10.44733   44.03840 
    16.26   10.42587   44.01693 
    16.28   10.40440   43.99547 
    16.30   10.38294   43.97400 
    16.32   10.36148   43.95254 
    16.34   10.34001   43.93108 
    16.36   10.31855   43.90961 
    16.38   10.29708   43.88815 
    16.40   10.27562   43.86668 
    16.42   10.25415   43.84522 
    16.44   10.23269   43.82375 
    16.46   10.21122   43.80229 
    16.48   10.18976   43.78082 
    16.50   10.16829   43.75936 
    16.52   10.14683   43.73789 
    16.54   10.12537   43.71643 
    16.56   10.10390   43.69497 
    16.58   10.08244   43.67350 
    16.60   10.06097   43.65204 
    16.62   10.03951   43.63057 
    16.64   10.01804   43.60911 
    16.66    9.99658   43.58764 
    16.68    9.97511   43.56618 
    16.70    9.95365   43.54471 
    16.72    9.93218   43.52325 
    16.74    9.91072   43.50178 
    16.76    9.88925   43.48032 
    16.78    9.87051   43.46158 
    16.80    9.87451   43.46558 
    16.82    9.87851   43.46958 
    16.84    9.88241   43.47348 
    16.86    9.88641   43.47748 
    16.88    9.89041   43.48148 
    16.90    9.89441   43.48548 
    16.92    9.89841   43.48948 
    16.94    9.90241   43.49348 
    16.96    9.90641   43.49748 
    16.98    9.91041   43.50148 
    17.00    9.91441   43.50548 
    17.02    9.91841   43.50948 
    17.04    9.92241   43.51348 
    17.06    9.92641   43.51748 
    17.08    9.93051   43.52158 
    17.10    9.93451   43.52558 
    17.12    9.93821   43.52928 
    17.14    9.94221   43.53328 
    17.16    9.94621   43.53728 
    17.18    9.95021   43.54128 
    17.20    9.95421   43.54528 
    17.22    9.95821   43.54928 
    17.24    9.96221   43.55328 
    17.26    9.96621   43.55728 
    17.28    9.97021   43.56128 
    17.30    9.97421   43.56528 
    17.32    9.97811   43.56918 
    17.34    9.98211   43.57318 
    17.36    9.98611   43.57718 
    17.38    9.99021   43.58128 
    17.40    9.99421   43.58528 
    17.42    9.99821   43.58928 
    17.44   10.00231   43.59338 
    17.46   10.00631   43.59738 
    17.48   10.01041   43.60148 
    17.50   10.01441   43.60548 
    17.52   10.01851   43.60958 
    17.54   10.02261   43.61368 
    17.56   10.02671   43.61778 
    17.58   10.03081   43.62188 
    17.60   10.03491   43.62598 
    17.62   10.03911   43.63018 
    17.64   10.04331   43.63438 
    17.66   10.04731   43.63838 
    17.68   10.05151   43.64258 
    17.70   10.05581   43.64688 
    17.72   10.06011   43.65118 
    17.74   10.06451   43.65558 
    17.76   10.06891   43.65998 
    17.78   10.07291   43.66398 
    17.80   10.07741   43.66848 
    17.82   10.08191   43.67298 
    17.84   10.08661   43.67768 
    17.86   10.09131   43.68238 
    17.88   10.09621   43.68728 
    17.90   10.10101   43.69208 
    17.92   10.10611   43.69718 
    17.94   10.11131   43.70238 
    17.96   10.11671   43.70778 
    17.98   10.12231   43.71338 
    18.00   10.12771   43.71878 
    18.02   10.13361   43.72468 
    18.04   10.13981   43.73088 
    18.06   10.14621   43.73728 
    18.08   10.15291   43.74398 
    18.10   10.15991   43.75098 
    18.12   10.16721   43.75828 
    18.14   10.17491   43.76598 
    18.16   10.18251   43.77358 
    18.18   10.19071   43.78178 
    18.20   10.19931   43.79038 
    18.22   10.20821   43.79928 
    18.24   10.19341   43.78448 
    18.26   10.20101   43.79208 
    18.28   10.20881   43.79988 
    18.30   10.21631   43.80738 
    18.32   10.22401   43.81508 
    18.34   10.23261   43.82368 
    18.36   10.24151   43.83258 
    18.38   10.25131   43.84238 
    18.40   10.26211   43.85318 
    18.42   10.27461   43.86568 
    18.44   10.28851   43.87958 
    18.46   10.30231   43.89338 
    18.48   10.31601   43.90708 
    18.50   10.33081   43.92188 
    18.52   10.34681   43.93788 
    18.54   10.36411   43.95518 
    18.56   10.38251   43.97358 
    18.58   10.40171   43.99278 
    18.60   10.42141   44.01248 
    18.62   10.44091   44.03198 
    18.64   10.46001   44.05108 
    18.66   10.47821   44.06928 
    18.68   10.49531   44.08638 
    18.70   10.51111   44.10218 
    18.72   10.52551   44.11658 
    18.74   10.53851   44.12958 
    18.76   10.55011   44.14118 
    18.78   10.56051   44.15158 
    18.80   10.56961   44.16068 
    18.82   10.57751   44.16858 
    18.84   10.58441   44.17548 
    18.86   10.59041   44.18148 
    18.88   10.59561   44.18668 
    18.90   10.59991   44.19098 
    18.92   10.60361   44.19468 
    18.94   10.60661   44.19768 
    18.96   10.60911   44.20018 
    18.98   10.61101   44.20208 
    19.00   10.61241   44.20348 
    19.02   10.61331   44.20438 
    19.04   10.61351   44.20458 
    19.06   10.61321   44.20428 
    19.08   10.61261   44.20368 
    19.10   10.61161   44.20268 
    19.12   10.61041   44.20148 
    19.14   10.60881   44.19988 
    19.16   10.60691   44.19798 
    19.18   10.60471   44.19578 
    19.20   10.60231   44.19338 
    19.22   10.59961   44.19068 
    19.24   10.59661   44.18768 
    19.26   10.59341   44.18448 
    19.28   10.59001   44.18108 
    19.30   10.58631   44.17738 
    19.32   10.58231   44.17338 
    19.34   10.57811   44.16918 
    19.36   10.57361   44.16468 
    19.38   10.56881   44.15988 
    19.40   10.56361   44.15468 
    -1.00   11.02121   44.61227 
    -2.00   10.94118   44.53224 
    -3.00   10.13629   43.72735 
    -4.00   10.35355   43.94462 
